ub,vb,wb,pb,qb,rb,latitude,longitude,altitude,phi,theta,psi
172.348971246004,-2.89616249620084e-05,8.21237155770843,9.61719821070958e-06,-9.61719821026483e-06,-9.61701323237517e-06,0.660221874376677,-1.31761994177534,1500,9.61710572198711e-06,9.61710572198711e-06,3.14159311203186
172.348971252887,-2.89577375900751e-05,8.21237146062405,9.61718921870179e-06,-9.61672635341045e-06,-9.61701948188314e-06,0.660221833148533,-1.31761994177533,1499.95894640915,9.66519122828644e-06,9.56902087961935e-06,3.14159306394632
172.348971273333,-2.89460904910151e-05,8.2123711720485,9.61718112196813e-06,-9.61507674180874e-06,-9.61702804646969e-06,0.66022179192039,-1.31761994177531,1499.91789277784,9.71327668302598e-06,9.52094120107371e-06,3.14159301586073
172.34897130703,-2.89267133987346e-05,8.21237069613142,9.61720073002218e-06,-9.61190823847385e-06,-9.61702391327705e-06,0.660221750692246,-1.3176199417753,1499.876839107,9.76136215869557e-06,9.47287343458406e-06,3.14159296777512
172.348971353658,-2.88996474501994e-05,8.2123700372292,9.61727247704535e-06,-9.60689556956202e-06,-9.61699249249432e-06,0.660221709464103,-1.31761994177528,1499.8357853976,9.80944785585827e-06,9.42482599442312e-06,3.14159291968959
172.348971412889,-2.88649448612648e-05,8.21236919988864,9.61741850899524e-06,-9.59972935512467e-06,-9.61691962453188e-06,0.66022166823596,-1.31761994177526,1499.79473165054,9.8575340914913e-06,9.37680888149658e-06,3.14159287160431
172.348971484388,-2.8822668596032e-05,8.21236818883099,9.61765877087496e-06,-9.59011610780564e-06,-9.6167915865229e-06,0.660221627007816,-1.31761994177524,1499.75367786674,9.905621287763e-06,9.32883360386402e-06,3.14159282351953
172.34897156781,-2.87728920302719e-05,8.21236700893606,9.61801109397766e-06,-9.57777820081444e-06,-9.61659509813642e-06,0.660221585779673,-1.31761994177521,1499.71262404711,9.95370996124614e-06,9.28091309734376e-06,3.14159277543556
172.348971662807,-2.87156986094285e-05,8.21236566522684,9.61849128304495e-06,-9.56245380628846e-06,-9.61631732673911e-06,0.66022154455153,-1.31761994177518,1499.67157019252,1.00018007125672e-05,9.23306164635229e-06,3.14159272735276
172.348971769024,-2.8651181501717e-05,8.21236416285428,9.61911320317871e-06,-9.5438968053663e-06,-9.61594589188977e-06,0.660221503323386,-1.31761994177515,1499.63051630384,1.00498942164911e-05,9.18529480512319e-06,3.14159267927158
172.348971886101,-2.85794432468201e-05,8.21236250708242,9.61988886637638e-06,-9.52187667117759e-06,-9.61546886921182e-06,0.660221462095243,-1.31761994177512,1499.58946238195,1.00979912124391e-05,9.13762931944393e-06,3.14159263119251
172.348972013672,-2.85005954006837e-05,8.21236070327392,9.6208285176001e-06,-9.49617832602706e-06,-9.61487479361701e-06,0.660221420867099,-1.31761994177508,1499.54840842767,1.01460924954391e-05,9.09008304904271e-06,3.14159258311612
172.348972151369,-2.84147581769182e-05,8.21235875687591,9.62194072023154e-06,-9.46660197399557e-06,-9.61415266193398e-06,0.660221379638956,-1.31761994177504,1499.50735444187,1.0194198907504e-05,9.04267489075139e-06,3.14159253504301
172.34897229882,-2.83220600852731e-05,8.2123566734062,9.6232324408321e-06,-9.43296291024e-06,-9.61329193492734e-06,0.660221338410812,-1.317619941775,1499.46630042535,1.02423113294359e-05,8.99542470256419e-06,3.14159248697385
172.34897245565,-2.8222637567655e-05,8.21235445843987,9.62470913305372e-06,-9.39509130825402e-06,-9.61228253872587e-06,0.660221297182669,-1.31761994177496,1499.42524637894,1.02904306730524e-05,8.9483532287055e-06,3.14159243890937
172.34897262148,-2.81166346322026e-05,8.21235211759632,9.62637482064115e-06,-9.35283198628346e-06,-9.61111486568278e-06,0.660221255954525,-1.31761994177491,1499.38419230344,1.03385578738296e-05,8.90148202581403e-06,3.14159239085032
172.348972795932,-2.800420248582e-05,8.21234965652667,9.62823217938286e-06,-9.30604415421982e-06,-9.60977977467691e-06,0.660221214726382,-1.31761994177486,1499.34313819965,1.03866938839581e-05,8.85483339034415e-06,3.14159234279753
172.348972978624,-2.78854991656666e-05,8.21234708090154,9.6302826179199e-06,-9.25460114212593e-06,-9.60826859086569e-06,0.660221173498238,-1.31761994177481,1499.30208406836,1.04348396658056e-05,8.80843028727933e-06,3.14159229475185
172.348973169175,-2.77606891700163e-05,8.21234439639937,9.63252635735498e-06,-9.19839011167792e-06,-9.60657310490654e-06,0.660221132270095,-1.31761994177475,1499.26102991035,1.04829961857805e-05,8.76229628024599e-06,3.14159224671418
172.348973367203,-2.76299430889538e-05,8.21234160869505,9.63496250949568e-06,-9.13731175167247e-06,-9.6046855716691e-06,0.660221091041951,-1.3176199417747,1499.21997572639,1.05311644085907e-05,8.71645546311057e-06,3.14159219868547
172.348973572325,-2.74934372352845e-05,8.21233872344905,9.63758915371174e-06,-9.07127995884715e-06,-9.60259870843949e-06,0.660221049813807,-1.31761994177464,1499.17892151725,1.05793452918896e-05,8.67093239313628e-06,3.14159215066669
172.348973784159,-2.73513532761394e-05,8.212335746297,9.6404034122903e-06,-9.00022150514926e-06,-9.60030569264027e-06,0.660221008585663,-1.31761994177458,1499.13786728368,1.06275397813028e-05,8.62575202577008e-06,3.14159210265886
172.348974002325,-2.72038778655994e-05,8.21233268283965,9.64340152423904e-06,-8.92407569264084e-06,-9.5978001590853e-06,0.66022096735752,-1.31761994177451,1499.09681302644,1.06757488058284e-05,8.58093965112469e-06,3.14159205466303
172.348974226443,-2.70512022788191e-05,8.21232953863332,9.64657891740553e-06,-8.84279399714886e-06,-9.59507619677393e-06,0.660220926129376,-1.31761994177444,1499.05575874627,1.07239732736008e-05,8.53652083221472e-06,3.14159200668027
172.348974456135,-2.68935220479745e-05,8.21232631918085,9.64993027890319e-06,-8.75633970182056e-06,-9.5921283452386e-06,0.660220884901232,-1.31761994177437,1499.01470444392,1.07722140680122e-05,8.49252134500019e-06,3.14159195871169
172.348974691024,-2.67310366004363e-05,8.21232302992286,9.653449623759e-06,-8.66468752163511e-06,-9.58895159048307e-06,0.660220843673088,-1.3176199417743,1498.97365012011,1.08204720441813e-05,8.44896712028541e-06,3.14159191075842
172.348974930737,-2.65639488995408e-05,8.21231967622962,9.65713036172269e-06,-8.56782321994848e-06,-9.58554136049161e-06,0.660220802444944,-1.31761994177423,1498.93259577558,1.08687480257603e-05,8.40588418751554e-06,3.14159186282162
172.348975174902,-2.63924650882952e-05,8.21231626339322,9.66096536214744e-06,-8.46574321814649e-06,-9.58189352035821e-06,0.6602207612168,-1.31761994177415,1498.89154141106,1.09170428020719e-05,8.36329862050818e-06,3.14159181490247
172.348975423152,-2.62167941363841e-05,8.21231279662032,9.66494701699139e-06,-8.35845419939142e-06,-9.57800436702213e-06,0.660220719988656,-1.31761994177407,1498.85048702726,1.09653571255654e-05,8.32123648515183e-06,3.14159176700216
172.348975675122,-2.60371474907953e-05,8.21230928102522,9.66906730173384e-06,-8.24597270748831e-06,-9.57387062365026e-06,0.660220678760512,-1.31761994177399,1498.80943262491,1.10136917095827e-05,8.27972378909821e-06,3.14159171912192
172.348975930449,-2.58537387304029e-05,8.21230572162348,9.67331783434966e-06,-8.12832474178479e-06,-9.56948943366305e-06,0.660220637532368,-1.3176199417739,1498.76837820472,1.10620472264247e-05,8.23878643347061e-06,3.14159167126296
172.348976188776,-2.56667832248146e-05,8.21230212332587,9.67768993215722e-06,-8.00554534909126e-06,-9.56485835442498e-06,0.660220596304223,-1.31761994177381,1498.7273237674,1.11104243057062e-05,8.19845016660548e-06,3.14159162342654
172.34897644975,-2.54764977977888e-05,8.21229849093284,9.68217466658169e-06,-7.87767821349777e-06,-9.55997535061015e-06,0.660220555076079,-1.31761994177372,1498.68626931367,1.1158823532991e-05,8.15874053984011e-06,3.14159157561391
172.348976713021,-2.52831003955255e-05,8.21229482912939,9.68676291579232e-06,-7.7447752449751e-06,-9.55483878726931e-06,0.660220513847935,-1.31761994177363,1498.64521484425,1.12072454486943e-05,8.11968286535461e-06,3.14159152782633
172.348976978244,-2.50868097600899e-05,8.21229114248028,9.69144541518403e-06,-7.60689616759339e-06,-9.54944742260611e-06,0.66022047261979,-1.31761994177353,1498.60416035982,1.12556905472439e-05,8.08130217607217e-06,3.14159148006508
172.348977245079,-2.48878451082669e-05,8.21228743542581,9.69621280570318e-06,-7.46410810817297e-06,-9.54380040046575e-06,0.660220431391646,-1.31761994177344,1498.56310586111,1.13041592764881e-05,8.04362318761743e-06,3.14159143233142
172.34897751319,-2.46864258160991e-05,8.21228371227784,9.70105567995665e-06,-7.31648518617074e-06,-9.53789724256891e-06,0.660220390163501,-1.31761994177333,1498.52205134881,1.13526520373394e-05,8.00667026232891e-06,3.14159138462665
172.348977782247,-2.44827711093455e-05,8.21227997721631,9.70596462616867e-06,-7.16410810550689e-06,-9.53173784049326e-06,0.660220348935356,-1.31761994177323,1498.48099682365,1.14011691836439e-05,7.97046737531737e-06,3.14159133695205
172.348978051923,-2.42770997601367e-05,8.21227623428614,9.71093026993715e-06,-7.00706374910431e-06,-9.52532244741779e-06,0.660220307707211,-1.31761994177313,1498.43994228631,1.14497110222644e-05,7.93503808255859e-06,3.14159128930889
172.3489783219,-2.40696297900099e-05,8.21227248739444,9.71594331374301e-06,-6.84544477676797e-06,-9.51865166965508e-06,0.660220266479067,-1.31761994177302,1498.39888773751,1.14982778133672e-05,7.90040549100535e-06,3.14159124169845
172.348978591861,-2.38605781795874e-05,8.21226874030819,9.720994574324e-06,-6.67934922712237e-06,-9.51172645796503e-06,0.660220225250922,-1.31761994177291,1498.35783317795,1.15468697709011e-05,7.86659223070014e-06,3.14159119412201
172.348978861498,-2.36501605850618e-05,8.21226499665222,9.72607501784347e-06,-6.50888012414004e-06,-9.50454809868269e-06,0.660220184022777,-1.31761994177279,1498.31677860834,1.15954870632567e-05,7.83362042886695e-06,3.14159114658083
172.348979130507,-2.34385910617455e-05,8.21226125990752,9.73117579286744e-06,-6.33414508896527e-06,-9.49711820465272e-06,0.660220142794631,-1.31761994177268,1498.27572402939,1.1644129814098e-05,7.80151168595743e-06,3.14159109907619
172.348979398589,-2.32260817948036e-05,8.21225753340999,9.73628826118312e-06,-6.15525595745871e-06,-9.48943870601251e-06,0.660220101566486,-1.31761994177256,1498.23466944182,1.16927981033514e-05,7.77028705362375e-06,3.14159105160933
172.348979665451,-2.30128428374021e-05,8.2122538203494,9.74140402649502e-06,-5.97232840408696e-06,-9.48151184081233e-06,0.660220060338341,-1.31761994177244,1498.19361484632,1.17414919683453e-05,7.73996701458822e-06,3.1415910041815
172.348979930808,-2.27990818564123e-05,8.21225012376877,9.74651496098422e-06,-5.78548157259585e-06,-9.47334014548108e-06,0.660220019110196,-1.31761994177231,1498.15256024361,1.17902114050861e-05,7.71057146437663e-06,3.14159095679392
172.348980194376,-2.25850038858256e-05,8.21224644656398,9.75161322975876e-06,-5.59483771393477e-06,-9.46492644518822e-06,0.66021997788205,-1.31761994177219,1498.11150563442,1.18389563696634e-05,7.6821196948802e-06,3.14159090944782
172.348980455882,-2.23708110880392e-05,8.21224279148374,9.75669131325188e-06,-5.40052183188793e-06,-9.45627384406344e-06,0.660219936653905,-1.31761994177206,1498.07045101945,1.18877267797711e-05,7.65463037970895e-06,3.14159086214439
172.348980715056,-2.2156702523125e-05,8.21223916112986,9.76174202758873e-06,-5.20266133676181e-06,-9.44738571532467e-06,0.660219895425759,-1.31761994177193,1498.02939639943,1.19365225163358e-05,7.62812156129681e-06,3.14159081488483
172.348980971633,-2.19428739262424e-05,8.21223555795767,9.76675854293354e-06,-5.00138570752409e-06,-9.43826569130817e-06,0.660219854197614,-1.31761994177179,1497.98834177508,1.19853434252423e-05,7.60261063971738e-06,3.1415907676703
172.348981225355,-2.17295174932619e-05,8.21223198427688,9.77173439988172e-06,-4.79682616273853e-06,-9.42891765341546e-06,0.660219812969468,-1.31761994177166,1497.94728714713,1.2034189319145e-05,7.57811436316703e-06,3.14159072050196
172.34898147597,-2.15168216747515e-05,8.21222844225259,9.77666352391243e-06,-4.58911534056015e-06,-9.41934572199423e-06,0.660219771741322,-1.31761994177152,1497.9062325163,1.20830599793577e-05,7.55464882007093e-06,3.14159067338093
172.348981723231,-2.13049709783799e-05,8.21222493390653,9.78154023798282e-06,-4.378386988124e-06,-9.40955424616005e-06,0.660219730513176,-1.31761994177138,1497.86517788332,1.21319551578099e-05,7.53222943276562e-06,3.14159062630831
172.348981966897,-2.10941457798469e-05,8.21222146111858,9.78635927325375e-06,-4.16477566052757e-06,-9.39954779355904e-06,0.66021968928503,-1.31761994177124,1497.82412324894,1.21808745790619e-05,7.51087095271078e-06,3.14159057928521
172.348982206732,-2.08845221424107e-05,8.21221802562851,9.79111577804219e-06,-3.94841642963906e-06,-9.38933114011236e-06,0.660219648056883,-1.31761994177109,1497.78306861388,1.22298179423688e-05,7.49058745718156e-06,3.14159053231268
172.348982442506,-2.06762716450589e-05,8.21221462903787,9.79580532501586e-06,-3.72944460295448e-06,-9.3789092597197e-06,0.660219606828737,-1.31761994177094,1497.74201397889,1.22787849237852e-05,7.47139234739191e-06,3.14159048539176
172.348982673996,-2.04695612193974e-05,8.21221127281213,9.80042391670791e-06,-3.5079954526082e-06,-9.3682873139467e-06,0.660219565600591,-1.31761994177079,1497.70095934472,1.23277751783016e-05,7.4532983479982e-06,3.14159043852347
172.34898290098,-2.02645529953031e-05,8.21220795828298,9.80496798937669e-06,-3.2842039547609e-06,-9.35747064172222e-06,0.660219524372444,-1.31761994177064,1497.65990471211,1.23767883420037e-05,7.43631750793195e-06,3.14159039170878
172.348983123247,-2.00614041553506e-05,8.21220468665083,9.80943441527152e-06,-3.05820453938242e-06,-9.34646474902479e-06,0.660219483144298,-1.31761994177048,1497.61885008181,1.24258240342476e-05,7.42046120250964e-06,3.14159034494867
172.348983340586,-1.98602667980642e-05,8.21220145898741,9.81382050341213e-06,-2.83013085059208e-06,-9.33527529858806e-06,0.660219441916151,-1.31761994177032,1497.57779545459,1.24748818598423e-05,7.40574013676726e-06,3.14159029824406
172.348983552794,-1.96612878100016e-05,8.21219827623858,9.8181239988241e-06,-2.60011551759366e-06,-9.32390809962661e-06,0.660219400688004,-1.31761994177016,1497.53674083121,1.25239614112322e-05,7.39216434996666e-06,3.14159025159586
172.348983759673,-1.94646087466738e-05,8.21219513922725,9.82234308040911e-06,-2.36828993626906e-06,-9.31236909760927e-06,0.660219359459858,-1.31761994177,1497.49568621242,1.25730622706726e-05,7.37974322122063e-06,3.14159020500495
172.348983961029,-1.9270365722295e-05,8.21219204865646,9.82647635742877e-06,-2.13478406139948e-06,-9.30066436406014e-06,0.660219318231711,-1.31761994176983,1497.45463159899,1.26221840123906e-05,7.36848547618341e-06,3.14159015847216
172.348984156672,-1.9078689308363e-05,8.21218900511249,9.83052286469281e-06,-1.89972620958683e-06,-9.28880008641625e-06,0.660219277003563,-1.31761994176966,1497.41357699171,1.26713262047259e-05,7.35839919475333e-06,3.1415901119983
172.348984346419,-1.88897044410479e-05,8.21218600906822,9.83448205653164e-06,-1.66324287278223e-06,-9.27678255795166e-06,0.660219235775416,-1.31761994176949,1497.37252239134,1.27204884122432e-05,7.34949181973432e-06,3.14159006558417
172.348984530089,-1.87035303373381e-05,8.21218306088644,9.8383537995412e-06,-1.42545854244531e-06,-9.2646181677593e-06,0.660219194547269,-1.31761994176932,1497.33146779867,1.27696701978129e-05,7.34177016640323e-06,3.14159001923051
172.348984707507,-1.85202804199257e-05,8.21218016082332,9.84213836427986e-06,-1.18649554420849e-06,-9.25231339082457e-06,0.660219153319121,-1.31761994176914,1497.29041321447,1.28188711246518e-05,7.33524043292988e-06,3.14158997293804
172.348984878502,-1.83400622508007e-05,8.21217730903198,9.84583641584097e-06,-9.46473883029566e-07,-9.23987477817613e-06,0.660219112090974,-1.31761994176896,1497.24935863954,1.28680907583201e-05,7.32990821159778e-06,3.14158992670745
172.348985042907,-1.81629774734383e-05,8.21217450556605,9.84944900347152e-06,-7.05511098699059e-07,-9.22730894713272e-06,0.660219070862826,-1.31761994176878,1497.20830407468,1.29173286686679e-05,7.32577850077293e-06,3.14158988053939
172.348985200558,-1.79891217635941e-05,8.21217175038337,9.85297754926325e-06,-4.63722131592254e-07,-9.21462257165278e-06,0.660219029634678,-1.3176199417686,1497.16724952067,1.29665844317287e-05,7.32285571756956e-06,3.14158983443448
172.348985351297,-1.78185847885705e-05,8.21216904334964,9.85642383594356e-06,-2.21219198558709e-07,-9.20182237279819e-06,0.66021898840653,-1.31761994176841,1497.12619497832,1.30158576315534e-05,7.32114371116164e-06,3.1415897883933
172.348985494967,-1.76514501749111e-05,8.21216638424223,9.85978999389788e-06,2.1888321213925e-08,-9.18891510930219e-06,0.660218947178382,-1.31761994176822,1497.08514044843,1.3065147861981e-05,7.32064577668993e-06,3.1415897424164
172.348985631533,-1.74877953507515e-05,8.21216377309845,9.86308433361736e-06,2.65498985889521e-07,-9.17590772237418e-06,0.660218905950234,-1.31761994176803,1497.04408593182,1.31144547390064e-05,7.32136467907541e-06,3.14158969650432
172.348985760926,-1.73276912333818e-05,8.21216120976818,9.86631328855464e-06,5.09511923907672e-07,-9.1628071529854e-06,0.660218864722086,-1.31761994176784,1497.00303142928,1.31637779236257e-05,7.32330268420563e-06,3.14158965065752
172.348985883003,-1.71712025627438e-05,8.21215869378336,9.86947939343678e-06,7.53825588595932e-07,-9.14962025311225e-06,0.660218823493938,-1.31761994176764,1496.96197694164,1.32131170950716e-05,7.32646154822107e-06,3.14158960487646
172.348985997621,-1.70183879796561e-05,8.21215622460153,9.87258548915915e-06,9.98341662835932e-07,-9.13635387293076e-06,0.660218782265789,-1.31761994176744,1496.92092246971,1.32624719460227e-05,7.33084252757462e-06,3.14158955916155
172.348986104643,-1.68693000365034e-05,8.21215380160972,9.87563470642254e-06,1.2429651275836e-06,-9.12301485212376e-06,0.660218741037641,-1.31761994176724,1496.87986801431,1.33118421840937e-05,7.33644639535437e-06,3.14158951351318
172.348986203931,-1.67239852156518e-05,8.21215142412829,9.87863044894847e-06,1.48760432142103e-06,-9.10961001134861e-06,0.660218699809492,-1.31761994176704,1496.83881357627,1.33612275332423e-05,7.34327345792657e-06,3.14158946793168
172.348986295353,-1.65824839554649e-05,8.21214909141478,9.88157637629743e-06,1.73217099126939e-06,-9.09614614387243e-06,0.660218658581343,-1.31761994176683,1496.79775915642,1.34106277350918e-05,7.35132357185408e-06,3.14158942241738
172.348986378779,-1.64448306837782e-05,8.2121468026677,9.88447638634551e-06,1.97658033462011e-06,-9.08263000738223e-06,0.660218617353194,-1.31761994176662,1496.75670475558,1.34600425501665e-05,7.36059616104711e-06,3.14158937697054
172.348986454078,-1.63110538586834e-05,8.21214455703036,9.88733459750001e-06,2.22075103342573e-06,-9.06906831597173e-06,0.660218576125045,-1.31761994176641,1496.71565037459,1.35094717590391e-05,7.37109023410419e-06,3.14158933159142
172.348986521127,-1.61811760164565e-05,8.21214235359459,9.89015533070801e-06,2.464605279955e-06,-9.0554677323113e-06,0.660218534896896,-1.3176199417662,1496.6745960143,1.35589151633881e-05,7.38280440180232e-06,3.14158928628023
172.348986579799,-1.6055213826497e-05,8.21214019140445,9.89294309126616e-06,2.70806879482856e-06,-9.0418348600062e-06,0.660218493668747,-1.31761994176598,1496.63354167554,1.36083725869656e-05,7.39573689469686e-06,3.14158924103713
172.348986629974,-1.59331781530935e-05,8.2121380694599,9.8957025505353e-06,2.95107083753581e-06,-9.02817623615162e-06,0.660218452440598,-1.31761994176577,1496.59248735916,1.36578438764727e-05,7.40988558079253e-06,3.14158919586229
172.34898667153,-1.58150741238534e-05,8.21213598672043,9.89843852758917e-06,3.19354420966713e-06,-9.01449832408287e-06,0.660218411212448,-1.31761994176555,1496.551433066,1.37073289023449e-05,7.42524798324881e-06,3.14158915075581
172.348986704349,-1.57009012046161e-05,8.21213394210856,9.90115597083031e-06,3.43542525113059e-06,-9.00080750632816e-06,0.660218369984298,-1.31761994176532,1496.51037879693,1.37568275594438e-05,7.44182129808385e-06,3.14158910571777
